Filename:	C:\Program Files (x86)\PerkinElmer\Pyris\data\Daniele\231128_RBX_RSO\231128_lard_A.ds8d

Temperature (°C)	Heat Flow Endo Up (mW)
90.63	-6.0153
90.64	-6.0133
90.64	-6.0090
90.65	-6.0027
90.66	-5.9956
90.67	-5.9887
90.67	-5.9825
90.68	-5.9779
90.69	-5.9750
90.70	-5.9743
90.70	-5.9752
90.70	-5.9780
90.71	-5.9823
90.72	-5.9884
90.72	-5.9955
90.72	-6.0036
90.73	-6.0125
90.73	-6.0222
90.73	-6.0323
90.73	-6.0427
90.73	-6.0536
90.73	-6.0648
90.74	-6.0764
90.74	-6.0883
90.74	-6.1005
90.74	-6.1132
90.74	-6.1261
90.74	-6.1394
90.74	-6.1531
90.74	-6.1673
90.74	-6.1818
90.74	-6.1967
90.74	-6.2119
90.75	-6.2276
90.75	-6.2435
90.74	-6.2600
90.75	-6.2764
90.74	-6.2932
90.75	-6.3102
90.75	-6.3272
90.75	-6.3443
90.75	-6.3614
90.75	-6.3783
90.75	-6.3950
90.75	-6.4117
90.75	-6.4281
90.75	-6.4444
90.75	-6.4601
90.75	-6.4756
90.75	-6.4907
90.75	-6.5051
90.75	-6.5194
90.75	-6.5328
90.75	-6.5458
90.75	-6.5583
90.75	-6.5701
90.75	-6.5816
90.75	-6.5925
90.75	-6.6027
90.75	-6.6123
90.75	-6.6214
90.75	-6.6298
90.75	-6.6377
90.75	-6.6451
90.75	-6.6517
90.75	-6.6578
90.75	-6.6637
90.75	-6.6688
90.75	-6.6735
90.75	-6.6777
90.75	-6.6814
90.75	-6.6847
90.75	-6.6876
90.75	-6.6902
90.75	-6.6922
90.75	-6.6940
90.75	-6.6953
90.75	-6.6964
90.75	-6.6972
90.75	-6.6977
90.76	-6.6981
90.75	-6.6982
90.75	-6.6979
90.75	-6.6975
90.76	-6.6967
90.76	-6.6959
90.75	-6.6950
90.75	-6.6938
90.76	-6.6925
90.76	-6.6910
90.76	-6.6895
90.75	-6.6880
90.75	-6.6864
90.75	-6.6848
90.75	-6.6831
90.75	-6.6812
90.75	-6.6791
90.75	-6.6771
90.75	-6.6751
90.75	-6.6730
90.75	-6.6710
90.76	-6.6689
90.76	-6.6668
90.76	-6.6648
90.76	-6.6626
90.76	-6.6605
90.76	-6.6584
90.76	-6.6563
90.76	-6.6541
90.76	-6.6522
90.75	-6.6501
90.75	-6.6482
90.75	-6.6461
90.76	-6.6442
90.75	-6.6422
90.75	-6.6402
90.75	-6.6383
90.75	-6.6363
90.75	-6.6346
90.75	-6.6327
90.75	-6.6309
90.75	-6.6291
90.75	-6.6273
90.75	-6.6255
90.76	-6.6237
90.76	-6.6220
90.75	-6.6204
90.75	-6.6188
90.75	-6.6172
90.75	-6.6159
90.75	-6.6143
90.75	-6.6130
90.76	-6.6115
90.75	-6.6102
90.75	-6.6090
90.75	-6.6077
90.75	-6.6065
90.75	-6.6051
90.75	-6.6039
90.75	-6.6029
90.75	-6.6016
90.75	-6.6006
90.75	-6.5995
90.75	-6.5985
90.75	-6.5974
90.75	-6.5963
90.75	-6.5955
90.75	-6.5945
90.75	-6.5935
90.76	-6.5926
90.75	-6.5916
90.76	-6.5908
90.75	-6.5899
90.75	-6.5890
90.75	-6.5882
90.75	-6.5876
90.76	-6.5867
90.75	-6.5861
90.76	-6.5852
90.75	-6.5846
90.76	-6.5838
90.75	-6.5833
90.76	-6.5826
90.76	-6.5820
90.76	-6.5814
90.76	-6.5808
90.76	-6.5803
90.75	-6.5797
90.75	-6.5793
90.76	-6.5787
90.76	-6.5781
90.76	-6.5778
90.76	-6.5774
90.76	-6.5768
90.76	-6.5765
90.75	-6.5760
90.75	-6.5756
90.75	-6.5753
90.75	-6.5748
90.75	-6.5747
90.75	-6.5744
90.75	-6.5741
90.75	-6.5738
90.76	-6.5735
90.75	-6.5731
90.76	-6.5728
90.76	-6.5725
90.76	-6.5721
90.75	-6.5719
90.76	-6.5719
90.76	-6.5716
90.76	-6.5713
90.76	-6.5711
90.76	-6.5709
90.76	-6.5708
90.76	-6.5706
90.76	-6.5702
90.76	-6.5699
90.76	-6.5697
90.75	-6.5696
90.75	-6.5693
90.75	-6.5690
90.76	-6.5689
90.76	-6.5687
90.76	-6.5685
90.76	-6.5682
90.76	-6.5680
90.76	-6.5679
90.76	-6.5678
90.76	-6.5677
90.76	-6.5677
90.75	-6.5676
90.76	-6.5675
90.76	-6.5675
90.76	-6.5673
90.76	-6.5673
90.76	-6.5672
90.76	-6.5672
90.75	-6.5670
90.75	-6.5669
90.75	-6.5669
90.76	-6.5668
90.76	-6.5669
90.76	-6.5668
90.76	-6.5668
90.76	-6.5667
90.75	-6.5665
90.76	-6.5664
90.76	-6.5664
90.76	-6.5663
90.76	-6.5663
90.75	-6.5662
90.76	-6.5662
90.76	-6.5662
90.76	-6.5661
90.76	-6.5660
90.76	-6.5658
90.75	-6.5656
90.76	-6.5653
90.76	-6.5651
90.76	-6.5649
90.76	-6.5645
90.76	-6.5642
90.76	-6.5639
90.76	-6.5635
90.76	-6.5634
90.76	-6.5631
90.76	-6.5629
90.75	-6.5626
90.76	-6.5626
90.76	-6.5625
90.76	-6.5623
90.75	-6.5620
90.75	-6.5620
90.76	-6.5617
90.76	-6.5617
90.76	-6.5617
90.75	-6.5616
90.75	-6.5615
90.76	-6.5616
90.76	-6.5617
90.76	-6.5618
90.76	-6.5618
90.75	-6.5619
90.76	-6.5618
90.76	-6.5618
90.76	-6.5620
90.76	-6.5620
90.76	-6.5620
90.76	-6.5621
90.76	-6.5624
90.76	-6.5627
90.76	-6.5627
90.76	-6.5627
90.76	-6.5628
90.75	-6.5629
90.75	-6.5628
90.75	-6.5628
90.76	-6.5629
90.76	-6.5631
90.76	-6.5631
90.76	-6.5630
90.76	-6.5630
90.75	-6.5632
90.76	-6.5631
90.76	-6.5631
90.76	-6.5631
90.76	-6.5632
90.76	-6.5631
90.76	-6.5633
90.76	-6.5632
90.76	-6.5632
90.75	-6.5632
90.76	-6.5631
90.76	-6.5631
90.76	-6.5632
90.76	-6.5632
90.76	-6.5633
90.76	-6.5634
90.76	-6.5633
90.76	-6.5635
90.76	-6.5634
90.76	-6.5633
90.76	-6.5633
90.76	-6.5632
90.76	-6.5632
90.76	-6.5631
90.76	-6.5631
90.75	-6.5630
90.75	-6.5630
90.76	-6.5630
90.76	-6.5630
90.76	-6.5632
90.76	-6.5632
90.76	-6.5633
90.75	-6.5634
90.76	-6.5634
90.76	-6.5634
90.76	-6.5634
90.76	-6.5636
90.76	-6.5637
90.76	-6.5636
90.76	-6.5638
90.76	-6.5639
90.76	-6.5640
90.76	-6.5640
90.76	-6.5638
90.76	-6.5638
90.75	-6.5638
90.75	-6.5637
90.76	-6.5638
90.76	-6.5637
90.76	-6.5637
90.76	-6.5637
90.76	-6.5637
90.76	-6.5637
90.76	-6.5638
90.76	-6.5638
90.76	-6.5639
90.76	-6.5640
90.76	-6.5640
90.75	-6.5641
90.76	-6.5639
90.76	-6.5640
90.76	-6.5642
90.76	-6.5642
90.76	-6.5643
90.76	-6.5643
90.76	-6.5643
90.76	-6.5645
90.76	-6.5645
90.76	-6.5646
90.76	-6.5648
90.76	-6.5648
90.76	-6.5648
90.76	-6.5647
90.76	-6.5647
90.76	-6.5647
90.76	-6.5647
90.76	-6.5647
90.76	-6.5646
90.76	-6.5645
90.76	-6.5646
90.76	-6.5647
90.76	-6.5646
90.76	-6.5646
90.76	-6.5646
90.76	-6.5645
90.76	-6.5644
90.75	-6.5644
90.76	-6.5645
90.76	-6.5645
90.76	-6.5644
90.76	-6.5645
90.77	-6.5645
90.76	-6.5647
90.76	-6.5646
90.76	-6.5646
90.76	-6.5646
90.76	-6.5646
90.76	-6.5646
90.76	-6.5645
90.76	-6.5644
90.76	-6.5645
90.76	-6.5644
90.76	-6.5644
90.76	-6.5643
90.76	-6.5644
90.76	-6.5643
90.76	-6.5644
90.76	-6.5644
90.76	-6.5644
90.76	-6.5644
90.76	-6.5644
90.76	-6.5645
90.76	-6.5647
90.77	-6.5646
90.76	-6.5648
90.76	-6.5647
90.76	-6.5648
90.76	-6.5647
90.76	-6.5648
90.76	-6.5648
90.76	-6.5648
90.76	-6.5648
90.76	-6.5648
90.76	-6.5648
90.76	-6.5648
90.76	-6.5649
90.76	-6.5648
90.76	-6.5649
90.76	-6.5648
90.76	-6.5647
90.76	-6.5646
90.76	-6.5646
90.76	-6.5645
90.76	-6.5644
90.76	-6.5644
90.76	-6.5645
90.76	-6.5645
90.76	-6.5646
90.76	-6.5645
90.76	-6.5646
90.76	-6.5646
90.76	-6.5646
90.76	-6.5646
90.76	-6.5644
90.76	-6.5643
90.76	-6.5642
90.76	-6.5643
90.76	-6.5644
90.76	-6.5642
90.76	-6.5641
90.76	-6.5642
90.76	-6.5643
90.76	-6.5643
90.76	-6.5642
90.76	-6.5644
90.76	-6.5646
90.76	-6.5645
90.76	-6.5646
90.76	-6.5646
90.76	-6.5646
90.76	-6.5647
90.76	-6.5648
90.76	-6.5648
90.76	-6.5647
90.76	-6.5647
90.76	-6.5646
90.76	-6.5646
90.76	-6.5645
90.76	-6.5646
90.76	-6.5645
90.76	-6.5646
90.76	-6.5646
90.76	-6.5646
90.76	-6.5646
90.76	-6.5644
90.76	-6.5646
90.76	-6.5645
90.76	-6.5645
90.76	-6.5645
90.76	-6.5648
90.76	-6.5647
90.76	-6.5646
90.76	-6.5646
90.76	-6.5647
90.76	-6.5646
90.76	-6.5645
90.77	-6.5645
90.77	-6.5647
90.77	-6.5646
90.76	-6.5645
90.76	-6.5646
90.76	-6.5646
90.76	-6.5646
90.76	-6.5645
90.76	-6.5645
90.76	-6.5647
90.76	-6.5647
90.76	-6.5645
90.76	-6.5645
90.76	-6.5645
90.76	-6.5645
90.76	-6.5644
90.76	-6.5643
90.76	-6.5644
90.76	-6.5643
90.76	-6.5645
90.76	-6.5645
90.76	-6.5645
90.76	-6.5645
90.76	-6.5646
90.76	-6.5646
90.76	-6.5646
90.76	-6.5645
90.76	-6.5645
90.76	-6.5645
90.75	-6.5645
90.76	-6.5646
90.76	-6.5647
90.76	-6.5648
90.76	-6.5647
90.76	-6.5649
90.76	-6.5649
90.76	-6.5649
90.76	-6.5647
90.76	-6.5647
90.76	-6.5647
90.76	-6.5647
90.76	-6.5647
90.76	-6.5649
90.76	-6.5649
90.76	-6.5650
90.76	-6.5651
90.76	-6.5651
90.76	-6.5651
90.76	-6.5652
90.76	-6.5652
90.76	-6.5652
90.76	-6.5652
90.76	-6.5652
90.76	-6.5653
90.76	-6.5651
90.76	-6.5649
90.76	-6.5648
90.76	-6.5647
90.76	-6.5647
90.76	-6.5648
90.76	-6.5650
90.76	-6.5649
90.76	-6.5648
90.76	-6.5647
90.77	-6.5648
90.77	-6.5648
90.76	-6.5648
90.76	-6.5648
90.76	-6.5648
90.76	-6.5647
90.76	-6.5649
90.77	-6.5650
90.77	-6.5649
90.76	-6.5650
90.76	-6.5651
90.76	-6.5653
90.76	-6.5652
90.76	-6.5653
90.76	-6.5652
90.76	-6.5653
90.76	-6.5653
90.76	-6.5652
90.76	-6.5653
90.76	-6.5654
90.77	-6.5655
90.76	-6.5654
90.76	-6.5654
90.77	-6.5654
90.76	-6.5653
90.76	-6.5653
90.76	-6.5652
90.76	-6.5653
90.76	-6.5654
90.76	-6.5654
90.76	-6.5653
90.76	-6.5651
90.76	-6.5650
90.77	-6.5648
90.77	-6.5647
90.76	-6.5645
90.76	-6.5646
90.76	-6.5645
90.76	-6.5644
90.76	-6.5644
90.76	-6.5644
90.76	-6.5644
90.77	-6.5642
90.76	-6.5642
90.76	-6.5641
90.76	-6.5640
90.76	-6.5639
90.76	-6.5639
90.76	-6.5638
90.76	-6.5640
90.76	-6.5639
90.77	-6.5640
90.76	-6.5640
90.76	-6.5640
90.76	-6.5640
90.77	-6.5639
90.76	-6.5639
90.76	-6.5640
90.76	-6.5640
90.76	-6.5640
90.76	-6.5641
90.76	-6.5640
90.76	-6.5641
90.76	-6.5643
90.76	-6.5643
90.76	-6.5644
90.77	-6.5645
